R/sigma V_t(potential)/kT
1.000000000000000000e+00 6.375288425306859352e+00
1.012000000000000011e+00 5.728081542075277532e+00
1.024000000000000021e+00 5.154780887652006705e+00
1.036000000000000032e+00 4.651461144543437065e+00
1.048000000000000043e+00 4.214281949330027643e+00
1.060000000000000053e+00 3.839487892666316071e+00
1.072000000000000064e+00 3.523408519280915918e+00
1.084000000000000075e+00 3.262458327976509587e+00
1.096000000000000085e+00 3.053136771629855417e+00
1.108000000000000096e+00 2.892028257191787688e+00
1.120000000000000107e+00 2.775802145687213063e+00
1.132000000000000117e+00 2.701212752215113255e+00
1.144000000000000128e+00 2.665099345948542364e+00
1.156000000000000139e+00 2.664386150134631315e+00
1.168000000000000149e+00 2.696082342094581641e+00
1.179999999999999938e+00 2.757282053223670815e+00
1.191999999999999948e+00 2.845164368991251358e+00
1.203999999999999959e+00 2.956993328940749954e+00
1.215999999999999970e+00 3.090117926689664785e+00
1.227999999999999980e+00 3.241972109929569079e+00
1.239999999999999991e+00 3.410074780426111118e+00
1.252000000000000002e+00 3.592029794019015121e+00
1.264000000000000012e+00 3.785525960622072361e+00
1.276000000000000023e+00 3.988337044223157157e+00
1.288000000000000034e+00 4.198321762884211772e+00
1.300000000000000044e+00 4.413423788741254405e+00
1.312000000000000055e+00 4.631671748004378308e+00
1.324000000000000066e+00 4.851179220957748228e+00
1.336000000000000076e+00 5.070144741959605739e+00
1.348000000000000087e+00 5.286851799442264799e+00
1.360000000000000098e+00 5.499668835912113529e+00
1.372000000000000108e+00 5.707049247949615989e+00
1.384000000000000119e+00 5.907531386209307733e+00
1.396000000000000130e+00 6.099738555419799368e+00
1.408000000000000140e+00 6.282379014383776550e+00
1.420000000000000151e+00 6.454245975977998206e+00
1.431999999999999940e+00 6.614217607153292988e+00
1.443999999999999950e+00 6.761257028934576141e+00
1.455999999999999961e+00 6.894412316420824638e+00
1.467999999999999972e+00 7.012816498785093167e+00
1.479999999999999982e+00 7.115687559274511464e+00
1.491999999999999993e+00 7.202328435210283430e+00
1.504000000000000004e+00 7.272127017987686237e+00
1.516000000000000014e+00 7.324556153076071219e+00
1.528000000000000025e+00 7.359173640018863871e+00
1.540000000000000036e+00 7.375622232433563852e+00
1.552000000000000046e+00 7.373629638011745868e+00
1.564000000000000057e+00 7.353008518519057013e+00
1.576000000000000068e+00 7.313656489795217652e+00
1.588000000000000078e+00 7.255556121754024979e+00
1.600000000000000089e+00 7.178774938383351234e+00
1.612000000000000099e+00 7.083465417745137493e+00
1.624000000000000110e+00 6.969864991975402546e+00
1.636000000000000121e+00 6.838296047284239343e+00
1.648000000000000131e+00 6.689165923955814108e+00
1.660000000000000142e+00 6.522966916348368116e+00
1.672000000000000153e+00 6.340276272894212362e+00
1.684000000000000163e+00 6.141756196099739995e+00
1.696000000000000174e+00 5.928153842545412111e+00
1.708000000000000185e+00 5.700301322885763078e+00
1.720000000000000195e+00 5.459115701849405866e+00
1.732000000000000206e+00 5.205598998239025832e+00
1.744000000000000217e+00 4.940838184931378940e+00
1.756000000000000227e+00 4.666005188877303311e+00
1.768000000000000238e+00 4.382356891101699681e+00
1.780000000000000249e+00 4.091235126703554492e+00
1.792000000000000259e+00 3.794066684855920357e+00
1.804000000000000270e+00 3.492363308805926714e+00
1.816000000000000281e+00 3.187721695874779826e+00
1.828000000000000291e+00 2.881823497457753014e+00
1.840000000000000302e+00 2.576435319024199089e+00
1.852000000000000091e+00 2.273408720117550352e+00
1.864000000000000101e+00 1.974680214355293950e+00
1.876000000000000112e+00 1.682271269429009619e+00
1.888000000000000123e+00 1.398288307104346373e+00
1.900000000000000133e+00 1.124922703221024944e+00
1.912000000000000144e+00 8.644507876928415602e-01
1.924000000000000155e+00 6.192338445076663866e-01
1.936000000000000165e+00 3.917181117274431967e-01
1.948000000000000176e+00 1.844347814881904801e-01
1.960000000000000187e+00 0.000000000000000000e+00
1.972000000000000197e+00 -1.588851324529610420e-01
1.984000000000000208e+00 -2.894345615124529481e-01
1.996000000000000218e+00 -3.887772787461607482e-01
2.008000000000000007e+00 -4.539573216476953665e-01
2.020000000000000462e+00 -4.819337736365968405e-01
2.032000000000000028e+00 -4.695807640583258835e-01
2.044000000000000483e+00 -4.136874681842697132e-01
2.056000000000000050e+00 -3.109581072117520995e-01
2.068000000000000504e+00 -1.580119482639980588e-01
2.080000000000000071e+00 4.861669560980275140e-02
2.092000000000000082e+00 3.124784654345751367e-01
2.104000000000000092e+00 6.372089563092959708e-01
2.116000000000000103e+00 1.026528717407018565e+00
2.128000000000000114e+00 1.484243251974875832e+00
2.140000000000000124e+00 2.014243017334067964e+00
2.152000000000000135e+00 2.620503424879870202e+00
2.164000000000000146e+00 3.307084840081638610e+00
2.176000000000000156e+00 4.078132582482799862e+00
2.188000000000000167e+00 4.937876925700848574e+00
2.200000000000000178e+00 5.890633097427357079e+00
